1) Altitude (km) 			[Z]
2) Pressure (mb) 			[P]
3) Temperature (K) 			[T]
4) WaterVapor/Air Mixing Ratio (gm/kg)	[H2O]
5) Ozone/Air mixing ratio (gm/gm)	[O3]


@
Number of Gases: 2,
@
Number of Layers: 83,
@
        Z          P          T        H2O          O3
@


       0.000     1015.000      300.375    1.707e+01    4.764e-08
       0.040     1010.388      299.833    1.696e+01    4.778e-08
       0.080     1005.790      299.463    1.696e+01    4.792e-08
       0.120     1001.207      299.015    1.687e+01    4.807e-08
       0.160      996.638      298.625    1.689e+01    4.823e-08
       0.200      992.085      298.263    1.682e+01    4.840e-08
       0.240      987.546      297.872    1.684e+01    4.857e-08
       0.280      983.023      297.502    1.675e+01    4.875e-08
       0.320      978.514      297.076    1.676e+01    4.894e-08
       0.360      974.020      296.732    1.664e+01    4.913e-08
       0.400      969.541      296.367    1.660e+01    4.932e-08
       0.440      965.078      296.008    1.640e+01    4.952e-08
       0.480      960.629      295.627    1.622e+01    4.973e-08
       0.520      956.196      295.322    1.586e+01    4.993e-08
       0.560      951.779      295.014    1.561e+01    5.014e-08
       0.600      947.378      294.739    1.528e+01    5.035e-08
       0.640      942.993      294.463    1.510e+01    5.056e-08
       0.680      938.624      294.181    1.480e+01    5.076e-08
       0.720      934.272      293.911    1.466e+01    5.097e-08
       0.760      929.935      293.618    1.436e+01    5.117e-08
       0.800      925.615      293.361    1.421e+01    5.137e-08
       0.840      921.310      293.071    1.393e+01    5.157e-08
       0.880      917.022      292.816    1.381e+01    5.176e-08
       0.920      912.750      292.534    1.352e+01    5.194e-08
       0.960      908.494      292.277    1.341e+01    5.212e-08
       1.000      904.253      292.007    1.312e+01    5.229e-08
       1.040      900.029      291.741    1.301e+01    5.245e-08
       1.080      895.821      291.483    1.272e+01    5.261e-08
       1.120      891.628      291.209    1.263e+01    5.276e-08
       1.160      887.452      290.958    1.234e+01    5.290e-08
       1.200      883.291      290.683    1.225e+01    5.304e-08
       1.240      879.146      290.439    1.199e+01    5.317e-08
       1.280      875.017      290.168    1.187e+01    5.330e-08
       1.320      870.903      289.931    1.158e+01    5.343e-08
       1.360      866.806      289.683    1.142e+01    5.356e-08
       1.400      862.725      289.464    1.106e+01    5.369e-08
       1.440      858.659      289.263    1.081e+01    5.382e-08
       1.480      854.611      289.098    1.034e+01    5.395e-08
       1.520      850.579      288.973    9.932e+00    5.408e-08
       1.560      846.565      288.901    9.317e+00    5.422e-08
       1.600      842.570      288.889    8.733e+00    5.435e-08
       1.640      838.594      288.950    8.015e+00    5.449e-08
       1.680      834.637      289.064    7.411e+00    5.462e-08
       1.720      830.701      289.200    6.731e+00    5.476e-08
       1.760      826.786      289.340    6.246e+00    5.489e-08
       1.800      822.890      289.444    5.706e+00    5.502e-08
       1.840      819.014      289.502    5.329e+00    5.515e-08
       1.880      815.157      289.522    4.910e+00    5.528e-08
       1.920      811.318      289.503    4.650e+00    5.540e-08
       1.960      807.497      289.444    4.338e+00    5.552e-08
       2.000      803.692      289.350    4.204e+00    5.564e-08
       2.040      799.904      289.203    4.009e+00    5.575e-08
       2.080      796.131      289.014    3.964e+00    5.586e-08
       2.120      792.374      288.798    3.844e+00    5.596e-08
       2.160      788.631      288.539    3.858e+00    5.607e-08
       2.200      784.903      288.291    3.785e+00    5.617e-08
       2.240      781.189      288.020    3.847e+00    5.627e-08
       2.280      777.490      287.780    3.797e+00    5.637e-08
       2.320      773.804      287.522    3.820e+00    5.647e-08
       2.360      770.133      287.283    3.693e+00    5.657e-08
       2.400      766.477      287.020    3.700e+00    5.667e-08
       2.440      762.834      286.791    3.598e+00    5.678e-08
       2.480      759.206      286.522    3.606e+00    5.688e-08
       2.520      755.591      286.300    3.503e+00    5.699e-08
       2.560      751.991      286.018    3.511e+00    5.711e-08
       2.600      748.405      285.789    3.408e+00    5.722e-08
       2.640      744.833      285.510    3.414e+00    5.733e-08
       2.680      741.275      285.282    3.310e+00    5.745e-08
       2.720      737.730      285.003    3.318e+00    5.756e-08
       2.760      734.199      284.776    3.215e+00    5.767e-08
       2.800      730.683      284.501    3.318e+00    5.777e-08
       4.976      559.000      270.700    3.270e-03    6.270e-08
       9.957      286.000      237.200    3.270e-03    9.290e-08
      14.944      132.000      203.600    3.270e-03    2.080e-07
      20.051       56.500      207.600    3.270e-03    2.010e-06
      24.995       25.700      221.300    3.270e-03    8.400e-06
      29.940       12.200      232.300    3.270e-03    1.310e-05
      34.880        6.000      243.300    3.270e-03    1.070e-05
      39.807        3.050      254.300    3.270e-03    9.800e-06
      44.756        1.590      264.900    3.270e-03    6.180e-06
      49.621        0.854      270.000    3.270e-03    3.910e-06
      59.759        0.222      244.900    3.270e-03    6.680e-06
      68.903        0.058      219.400    3.270e-03    1.570e-06
