1) Altitude (km) 			[Z]
2) Pressure (mb) 			[P]
3) Temperature (K) 			[T]
4) WaterVapor/Air Mixing Ratio (gm/kg)	[H2O]
5) Ozone/Air mixing ratio (gm/gm)	[O3]


@
Number of Gases: 2,
@
Number of Layers: 82,
@
        Z          P          T        H2O          O3
@


       0.000     1012.000      298.000    1.338e+01    4.773e-08
       0.040     1007.365      297.413    1.338e+01    4.787e-08
       0.080     1002.743      297.034    1.338e+01    4.802e-08
       0.120      998.137      296.634    1.306e+01    4.818e-08
       0.160      993.546      296.241    1.332e+01    4.834e-08
       0.200      988.969      295.850    1.299e+01    4.851e-08
       0.240      984.409      295.474    1.326e+01    4.869e-08
       0.280      979.863      295.090    1.294e+01    4.888e-08
       0.320      975.332      294.707    1.322e+01    4.907e-08
       0.360      970.817      294.326    1.290e+01    4.927e-08
       0.400      966.316      293.947    1.319e+01    4.947e-08
       0.440      961.831      293.565    1.286e+01    4.967e-08
       0.480      957.360      293.193    1.314e+01    4.988e-08
       0.520      952.905      292.816    1.281e+01    5.009e-08
       0.560      948.465      292.436    1.308e+01    5.030e-08
       0.600      944.040      292.063    1.274e+01    5.051e-08
       0.640      939.630      291.703    1.298e+01    5.072e-08
       0.680      935.235      291.335    1.258e+01    5.092e-08
       0.720      930.855      290.998    1.274e+01    5.113e-08
       0.760      926.491      290.667    1.225e+01    5.133e-08
       0.800      922.143      290.364    1.235e+01    5.153e-08
       0.840      917.810      290.071    1.181e+01    5.172e-08
       0.880      913.494      289.791    1.194e+01    5.191e-08
       0.920      909.194      289.511    1.147e+01    5.209e-08
       0.960      904.910      289.228    1.162e+01    5.226e-08
       1.000      900.642      288.955    1.114e+01    5.243e-08
       1.040      896.390      288.683    1.134e+01    5.259e-08
       1.080      892.154      288.412    1.090e+01    5.274e-08
       1.120      887.935      288.143    1.110e+01    5.288e-08
       1.160      883.731      287.875    1.065e+01    5.302e-08
       1.200      879.544      287.603    1.088e+01    5.316e-08
       1.240      875.372      287.325    1.047e+01    5.329e-08
       1.280      871.216      287.031    1.075e+01    5.342e-08
       1.320      867.075      286.722    1.037e+01    5.355e-08
       1.355      863.464      286.438    1.066e+01    5.367e-08
       1.385      860.379      286.187    1.032e+01    5.377e-08
       1.411      857.711      285.986    1.060e+01    5.385e-08
       1.434      855.357      285.821    1.027e+01    5.393e-08
       1.454      853.314      285.692    1.052e+01    5.399e-08
       1.474      851.275      285.578    1.019e+01    5.406e-08
       1.494      849.240      285.487    1.042e+01    5.413e-08
       1.514      847.209      285.414    1.007e+01    5.420e-08
       1.534      845.183      285.384    1.022e+01    5.426e-08
       1.554      843.162      285.475    9.696e+00    5.433e-08
       1.574      841.147      285.808    9.489e+00    5.440e-08
       1.594      839.141      286.542    8.350e+00    5.447e-08
       1.614      837.146      287.728    7.450e+00    5.454e-08
       1.634      835.166      289.286    5.809e+00    5.461e-08
       1.654      833.200      290.650    5.256e+00    5.467e-08
       1.674      831.246      291.348    4.615e+00    5.474e-08
       1.694      829.299      291.629    4.667e+00    5.481e-08
       1.714      827.359      291.705    4.317e+00    5.487e-08
       1.734      825.422      291.675    4.512e+00    5.494e-08
       1.757      823.201      291.568    4.240e+00    5.501e-08
       1.784      820.600      291.413    4.455e+00    5.510e-08
       1.814      817.718      291.196    4.251e+00    5.520e-08
       1.849      814.365      290.942    4.463e+00    5.531e-08
       1.889      810.546      290.646    4.275e+00    5.543e-08
       1.936      806.078      290.321    4.488e+00    5.557e-08
       1.989      801.062      289.947    4.330e+00    5.572e-08
       2.050      795.321      289.532    4.577e+00    5.588e-08
       2.120      788.773      289.093    4.408e+00    5.606e-08
       2.201      781.251      288.592    4.601e+00    5.627e-08
       2.294      772.688      288.025    4.409e+00    5.650e-08
       2.401      762.931      287.357    4.594e+00    5.678e-08
       2.524      751.839      286.582    4.407e+00    5.711e-08
       2.666      739.198      285.678    4.593e+00    5.751e-08
       2.829      724.901      284.663    4.409e+00    5.794e-08
       3.016      708.778      283.452    4.590e+00    5.834e-08
       3.231      690.602      282.075    4.409e+00    5.863e-08
       4.941      559.000      270.700    3.270e-03    6.270e-08
       9.922      286.000      237.200    3.270e-03    9.290e-08
      14.910      132.000      203.600    3.270e-03    2.080e-07
      20.016       56.500      207.600    3.270e-03    2.010e-06
      24.960       25.700      221.300    3.270e-03    8.400e-06
      29.905       12.200      232.300    3.270e-03    1.310e-05
      34.845        6.000      243.300    3.270e-03    1.070e-05
      39.772        3.050      254.300    3.270e-03    9.800e-06
      44.721        1.590      264.900    3.270e-03    6.180e-06
      49.586        0.854      270.000    3.270e-03    3.910e-06
      59.724        0.222      244.900    3.270e-03    6.680e-06
      68.868        0.058      219.400    3.270e-03    1.570e-06
